     Tiempo (s)           Altura (m)      Velocidad (m/s)
        0.00000        4000.00000000           0.00000000
        0.10000        4000.00000000           0.98100000
        0.20000        3999.90190000           1.94667188
        0.30000        3999.70723281           2.89725513
        0.40000        3999.41750730           3.83298552
        0.50000        3999.03420875           4.75409512
        0.60000        3998.55879924           5.66081238
        0.70000        3997.99271800           6.55336219
        0.80000        3997.33738178           7.43196590
        0.90000        3996.59418519           8.29684144
        1.00000        3995.76450105           9.14820329
        1.10000        3994.84968072           9.98626261
        1.20000        3993.85105446          10.81122726
        1.30000        3992.76993173          11.62330183
        1.40000        3991.60760155          12.42268774
        1.50000        3990.36533277          13.20958325
        1.60000        3989.04437445          13.98418351
        1.70000        3987.64595610          14.74668064
        1.80000        3986.17128803          15.49726376
        1.90000        3984.62156166          16.23611901
        2.00000        3982.99794976          16.96342965
        2.10000        3981.30160679          17.67937606
        2.20000        3979.53366919          18.38413581
        2.30000        3977.69525560          19.07788369
        2.40000        3975.78746724          19.76079176
        2.50000        3973.81138806          20.43302938
        2.60000        3971.76808512          21.09476330
        2.70000        3969.65860879          21.74615762
        2.80000        3967.48399303          22.38737391
        2.90000        3965.24525564          23.01857119
        3.00000        3962.94339852          23.63990602
        3.10000        3960.57940792          24.25153249
        3.20000        3958.15425467          24.85360229
        3.30000        3955.66889444          25.44626476
        3.40000        3953.12426796          26.02966687
        3.50000        3950.52130128          26.60395332
        3.60000        3947.86090594          27.16926655
        3.70000        3945.14397929          27.72574676
        3.80000        3942.37140461          28.27353197
        3.90000        3939.54405142          28.81275803
        4.00000        3936.66277561          29.34355869
        4.10000        3933.72841974          29.86606558
        4.20000        3930.74181318          30.38040831
        4.30000        3927.70377235          30.88671443
        4.40000        3924.61510091          31.38510952
        4.50000        3921.47658996          31.87571718
        4.60000        3918.28901824          32.35865910
        4.70000        3915.05315233          32.83405505
        4.80000        3911.76974683          33.30202294
        4.90000        3908.43954453          33.76267883
        5.00000        3905.06327665          34.21613698
        5.10000        3901.64166295          34.66250984
        5.20000        3898.17541197          35.10190812
        5.30000        3894.66522115          35.53444081
        5.40000        3891.11177707          35.96021517
        5.50000        3887.51575556          36.37933681
        5.60000        3883.87782188          36.79190967
        5.70000        3880.19863091          37.19803608
        5.80000        3876.47882730          37.59781677
        5.90000        3872.71904563          37.99135088
        6.00000        3868.91991054          38.37873602
        6.10000        3865.08203694          38.76006827
        6.20000        3861.20603011          39.13544220
        6.30000        3857.29248589          39.50495092
        6.40000        3853.34199080          39.86868606
        6.50000        3849.35512219          40.22673784
        6.60000        3845.33244841          40.57919506
        6.70000        3841.27452890          40.92614514
        6.80000        3837.18191439          41.26767412
        6.90000        3833.05514697          41.60386671
        7.00000        3828.89476030          41.93480630
        7.10000        3824.70127967          42.26057495
        7.20000        3820.47522218          42.58125347
        7.30000        3816.21709683          42.89692138
        7.40000        3811.92740469          43.20765698
        7.50000        3807.60663899          43.51353734
        7.60000        3803.25528526          43.81463832
        7.70000        3798.87382143          44.11103460
        7.80000        3794.46271797          44.40279968
        7.90000        3790.02243800          44.69000594
        8.00000        3785.55343741          44.97272459
        8.10000        3781.05616495          45.25102577
        8.20000        3776.53106237          45.52497850
        8.30000        3771.97856452          45.79465071
        8.40000        3767.39909945          46.06010929
        8.50000        3762.79308852          46.32142008
        8.60000        3758.16094651          46.57864789
        8.70000        3753.50308172          46.83185652
        8.80000        3748.81989607          47.08110876
        8.90000        3744.11178519          47.32646644
        9.00000        3739.37913855          47.56799040
        9.10000        3734.62233951          47.80574055
        9.20000        3729.84176546          48.03977585
        9.30000        3725.03778787          48.27015435
        9.40000        3720.21077244          48.49693319
        9.50000        3715.36107912          48.72016861
        9.60000        3710.48906226          48.93991598
        9.70000        3705.59507066          49.15622979
        9.80000        3700.67944768          49.36916370
        9.90000        3695.74253131          49.57877052
       10.00000        3690.78465426          49.78510223
       10.10000        3685.80614403          49.98821001
       10.20000        3680.80732303          50.18814422
       10.30000        3675.78850861          50.38495447
       10.40000        3670.75001316          50.57868956
       10.50000        3665.69214421          50.76939753
       10.60000        3660.61520445          50.95712570
       10.70000        3655.51949189          51.14192061
       10.80000        3650.40529982          51.32382810
       10.90000        3645.27291701          51.50289328
       11.00000        3640.12262769          51.67916058
       11.10000        3634.95471163          51.85267369
       11.20000        3629.76944426          52.02347567
       11.30000        3624.56709669          52.19160886
       11.40000        3619.34793581          52.35711497
       11.50000        3614.11222431          52.52003505
       11.60000        3608.86022081          52.68040950
       11.70000        3603.59217986          52.83827810
       11.80000        3598.30835205          52.99368001
       11.90000        3593.00898404          53.14665376
       12.00000        3587.69431867          53.29723729
       12.10000        3582.36459494          53.44546796
       12.20000        3577.02004814          53.59138252
       12.30000        3571.66090989          53.73501717
       12.40000        3566.28740817          53.87640753
       12.50000        3560.89976742          54.01558866
       12.60000        3555.49820856          54.15259509
       12.70000        3550.08294905          54.28746079
       12.80000        3544.65420297          54.42021921
       12.90000        3539.21218105          54.55090329
       13.00000        3533.75709072          54.67954542
       13.10000        3528.28913618          54.80617753
       13.20000        3522.80851842          54.93083100
       13.30000        3517.31543532          55.05353677
       13.40000        3511.81008165          55.17432526
       13.50000        3506.29264912          55.29322642
       13.60000        3500.76332648          55.41026976
       13.70000        3495.22229950          55.52548430
       13.80000        3489.66975107          55.63889860
       13.90000        3484.10586121          55.75054081
       14.00000        3478.53080713          55.86043861
       14.10000        3472.94476327          55.96861926
       14.20000        3467.34790134          56.07510958
       14.30000        3461.74039038          56.17993600
       14.40000        3456.12239678          56.28312450
       14.50000        3450.49408433          56.38470068
       14.60000        3444.85561427          56.48468973
       14.70000        3439.20714529          56.58311645
       14.80000        3433.54883365          56.68000526
       14.90000        3427.88083312          56.77538018
       15.00000        3422.20329510          56.86926486
       15.10000        3416.51636862          56.96168260
       15.20000        3410.82020036          57.05265631
       15.30000        3405.11493473          57.14220855
       15.40000        3399.40071387          57.23036154
       15.50000        3393.67767772          57.31713714
       15.60000        3387.94596400          57.40255688
       15.70000        3382.20570832          57.48664192
       15.80000        3376.45704412          57.56941314
       15.90000        3370.70010281          57.65089106
       16.00000        3364.93501370          57.73109589
       16.10000        3359.16190411          57.81004752
       16.20000        3353.38089936          57.88776553
       16.30000        3347.59212281          57.96426919
       16.40000        3341.79569589          58.03957748
       16.50000        3335.99173814          58.11370908
       16.60000        3330.18036723          58.18668238
       16.70000        3324.36169900          58.25851547
       16.80000        3318.53584745          58.32922616
       16.90000        3312.70292483          58.39883201
       17.00000        3306.86304163          58.46735026
       17.10000        3301.01630661          58.53479791
       17.20000        3295.16282682          58.60119169
       17.30000        3289.30270765          58.66654807
       17.40000        3283.43605284          58.73088326
       17.50000        3277.56296452          58.79421321
       17.60000        3271.68354319          58.85655362
       17.70000        3265.79788783          58.91791997
       17.80000        3259.90609583          58.97832747
       17.90000        3254.00826309          59.03779111
       18.00000        3248.10448398          59.09632562
       18.10000        3242.19485141          59.15394553
       18.20000        3236.27945686          59.21066513
       18.30000        3230.35839035          59.26649849
       18.40000        3224.43174050          59.32145945
       18.50000        3218.49959455          59.37556165
       18.60000        3212.56203839          59.42881850
       18.70000        3206.61915654          59.48124321
       18.80000        3200.67103222          59.53284878
       18.90000        3194.71774734          59.58364802
       19.00000        3188.75938254          59.63365352
       19.10000        3182.79601718          59.68287769
       19.20000        3176.82772942          59.73133272
       19.30000        3170.85459614          59.77903065
       19.40000        3164.87669308          59.82598329
       19.50000        3158.89409475          59.87220230
       19.60000        3152.90687452          59.91769914
       19.70000        3146.91510461          59.96248509
       19.80000        3140.91885610          60.00657126
       19.90000        3134.91819897          60.04996859
       20.00000        3128.91320211          60.09268783
       20.10000        3122.90393333          60.13473958
       20.20000        3116.89045937          60.17613428
       20.30000        3110.87284594          60.21688218
       20.40000        3104.85115772          60.25699339
       20.50000        3098.82545838          60.29647787
       20.60000        3092.79581060          60.33534541
       20.70000        3086.76227606          60.37360563
       20.80000        3080.72491549          60.41126805
       20.90000        3074.68378869          60.44834198
       21.00000        3068.63895449          60.48483664
       21.10000        3062.59047083          60.52076107
       21.20000        3056.53839472          60.55612417
       21.30000        3050.48278230          60.59093473
       21.40000        3044.42368883          60.62520138
       21.50000        3038.36116869          60.65893261
       21.60000        3032.29527543          60.69213679
       21.70000        3026.22606175          60.72482215
       21.80000        3020.15357954          60.75699680
       21.90000        3014.07787986          60.78866873
       22.00000        3007.99901298          60.81984578
       22.10000        3001.91702841          60.85053569
       22.20000        2995.83197484          60.88074607
       22.30000        2989.74390023          60.91048441
       22.40000        2983.65285179          60.93975809
       22.50000        2977.55887598          60.96857437
       22.60000        2971.46201854          60.99694040
       22.70000        2965.36232450          61.02486320
       22.80000        2959.25983818          61.05234972
       22.90000        2953.15460321          61.07940675
       23.00000        2947.04666254          61.10604102
       23.10000        2940.93605843          61.13225913
       23.20000        2934.82283252          61.15806758
       23.30000        2928.70702576          61.18347278
       23.40000        2922.58867848          61.20848101
       23.50000        2916.46783038          61.23309850
       23.60000        2910.34452053          61.25733133
       23.70000        2904.21878740          61.28118553
       23.80000        2898.09066885          61.30466701
       23.90000        2891.96020215          61.32778159
       24.00000        2885.82742399          61.35053500
       24.10000        2879.69237049          61.37293289
       24.20000        2873.55507720          61.39498081
       24.30000        2867.41557912          61.41668424
       24.40000        2861.27391069          61.43804855
       24.50000        2855.13010584          61.45907904
       24.60000        2848.98419794          61.47978093
       24.70000        2842.83621984          61.50015935
       24.80000        2836.68620391          61.52021936
       24.90000        2830.53418197          61.53996593
       25.00000        2824.38018538          61.55940397
       25.10000        2818.22424498          61.57853828
       25.20000        2812.06639115          61.59737362
       25.30000        2805.90665379          61.61591466
       25.40000        2799.74506233          61.63416599
       25.50000        2793.58164573          61.65213215
       25.60000        2787.41643251          61.66981758
       25.70000        2781.24945076          61.68722668
       25.80000        2775.08072809          61.70436376
       25.90000        2768.91029171          61.72123308
       26.00000        2762.73816840          61.73783881
       26.10000        2756.56438452          61.75418508
       26.20000        2750.38896601          61.77027594
       26.30000        2744.21193842          61.78611538
       26.40000        2738.03332688          61.80170733
       26.50000        2731.85315615          61.81705565
       26.60000        2725.67145058          61.83216415
       26.70000        2719.48823417          61.84703659
       26.80000        2713.30353051          61.86167664
       26.90000        2707.11736285          61.87608794
       27.00000        2700.92975405          61.89027407
       27.10000        2694.74072664          61.90423854
       27.20000        2688.55030279          61.91798481
       27.30000        2682.35850431          61.93151630
       27.40000        2676.16535268          61.94483636
       27.50000        2669.97086904          61.95794829
       27.60000        2663.77507422          61.97085535
       27.70000        2657.57798868          61.98356073
       27.80000        2651.37963261          61.99606759
       27.90000        2645.18002585          62.00837904
       28.00000        2638.97918794          62.02049812
       28.10000        2632.77713813          62.03242783
       28.20000        2626.57389535          62.04417115
       28.30000        2620.36947823          62.05573097
       28.40000        2614.16390514          62.06711018
       28.50000        2607.95719412          62.07831158
       28.60000        2601.74936296          62.08933796
       28.70000        2595.54042916          62.10019206
       28.80000        2589.33040996          62.11087656
       28.90000        2583.11932230          62.12139411
       29.00000        2576.90718289          62.13174733
       29.10000        2570.69400816          62.14193877
       29.20000        2564.47981428          62.15197098
       29.30000        2558.26461718          62.16184644
       29.40000        2552.04843254          62.17156758
       29.50000        2545.83127578          62.18113684
       29.60000        2539.61316210          62.19055658
       29.70000        2533.39410644          62.19982913
       29.80000        2527.17412353          62.20895680
       29.90000        2520.95322785          62.21794185
       30.00000        2514.73143366          62.22678651
       30.10000        2508.50875501          62.23549297
       30.20000        2502.28520571          62.24406339
       30.30000        2496.06079937          62.25249990
       30.40000        2489.83554938          62.26080459
       30.50000        2483.60946893          62.26897952
       30.60000        2477.38257097          62.27702671
       30.70000        2471.15486830          62.28494817
       30.80000        2464.92637348          62.29274586
       30.90000        2458.69709890          62.30042170
       31.00000        2452.46705673          62.30797761
       31.10000        2446.23625897          62.31541546
       31.20000        2440.00471742          62.32273710
       31.30000        2433.77244371          62.32994433
       31.40000        2427.53944928          62.33703895
       31.50000        2421.30574538          62.34402272
       31.60000        2415.07134311          62.35089736
       31.70000        2408.83625338          62.35766459
       31.80000        2402.60048692          62.36432608
       31.90000        2396.36405431          62.37088349
       32.00000        2390.12696596          62.37733843
       32.10000        2383.88923212          62.38369252
       32.20000        2377.65086287          62.38994732
       32.30000        2371.41186813          62.39610440
       32.40000        2365.17225769          62.40216526
       32.50000        2358.93204117          62.40813143
       32.60000        2352.69122802          62.41400438
       32.70000        2346.44982759          62.41978556
       32.80000        2340.20784903          62.42547641
       32.90000        2333.96530139          62.43107834
       33.00000        2327.72219355          62.43659274
       33.10000        2321.47853428          62.44202098
       33.20000        2315.23433218          62.44736440
       33.30000        2308.98959574          62.45262433
       33.40000        2302.74433331          62.45780208
       33.50000        2296.49855310          62.46289892
       33.60000        2290.25226321          62.46791613
       33.70000        2284.00547160          62.47285494
       33.80000        2277.75818610          62.47771658
       33.90000        2271.51041444          62.48250226
       34.00000        2265.26216422          62.48721316
       34.10000        2259.01344290          62.49185045
       34.20000        2252.76425786          62.49641529
