     Tiempo (s)   Velocidad_real (m/s)   Velocidad_ruido (m/s)
        0.00000             0.00000000              0.99342831
        0.10000             0.98100000              0.70447140
        0.20000             1.94667188              3.24204895
        0.30000             2.89725513              5.94331484
        0.40000             3.83298552              3.36467877
        0.50000             4.75409512              4.28582120
        0.60000             5.66081238              8.81923801
        0.70000             6.55336219              8.08823165
        0.80000             7.43196590              6.49301713
        0.90000             8.29684144              9.38196152
        1.00000             9.14820329              8.22136790
        1.10000             9.98626261              9.05480310
        1.20000            10.81122726             11.29515180
        1.30000            11.62330183              7.79674134
        1.40000            12.42268774              8.97285208
        1.50000            13.20958325             12.08500819
        1.60000            13.98418351             11.95852127
        1.70000            14.74668064             15.37517531
        1.80000            15.49726376             13.68121560
        1.90000            16.23611901             13.41151161
        2.00000            16.96342965             19.89472719
        2.10000            17.67937606             17.22782346
        2.20000            18.38413581             18.51919222
        2.30000            19.07788369             16.22838732
        2.40000            19.76079176             18.67202631
        2.50000            20.43302938             20.65487456
        2.60000            21.09476330             18.79277615
        2.70000            21.74615762             22.49755366
        2.80000            22.38737391             21.18609653
        2.90000            23.01857119             22.43518369
        3.00000            23.63990602             22.43649279
        3.10000            24.25153249             27.95608886
        3.20000            24.85360229             24.82660784
        3.30000            25.44626476             23.33084290
        3.40000            26.02966687             27.67475669
        3.50000            26.60395332             24.16226602
        3.60000            27.16926655             27.58699374
        3.70000            27.72574676             23.80640652
        3.80000            28.27353197             25.61715987
        3.90000            28.81275803             29.20648051
        4.00000            29.34355869             30.82049185
        4.10000            29.86606558             30.20880215
        4.20000            30.38040831             30.14911175
        4.30000            30.88671443             30.28450704
        4.40000            31.38510952             28.42806554
        4.50000            31.87571718             30.43602876
        4.60000            32.35865910             31.43738156
        4.70000            32.83405505             34.94829950
        4.80000            33.30202294             33.98925952
        4.90000            33.76267883             30.23659852
        5.00000            34.21613698             34.86430492
        5.10000            34.66250984             33.89234528
        5.20000            35.10190812             33.74806412
        5.30000            35.53444081             36.75779338
        5.40000            35.96021517             38.02221421
        5.50000            36.37933681             38.24189704
        5.60000            36.79190967             35.11347462
        5.70000            37.19803608             36.57961133
        5.80000            37.59781677             38.26034363
        5.90000            37.99135088             39.94244113
        6.00000            38.37873602             37.42038755
        6.10000            38.76006827             38.38875032
        6.20000            39.13544220             36.92277226
        6.30000            39.50495092             37.11253767
        6.40000            39.86868606             41.49373771
        6.50000            40.22673784             42.93921790
        6.60000            40.57919506             40.43517482
        6.70000            40.92614514             42.93321094
        6.80000            41.26767412             41.99094617
        6.90000            41.60386671             40.31362721
        7.00000            41.93480630             42.65759751
        7.10000            42.26057495             45.33664808
        7.20000            42.58125347             42.50960139
        7.30000            42.89692138             46.02620869
        7.40000            43.20765698             37.96816678
        7.50000            43.51353734             45.15734235
        7.60000            43.81463832             43.98873246
        7.70000            44.11103460             43.51301990
        7.80000            44.40279968             44.58632124
        7.90000            44.69000594             40.71486811
        8.00000            44.97272459             44.53338082
        8.10000            45.25102577             45.96525092
        8.20000            45.52497850             48.48076658
        8.30000            45.79465071             44.75811027
        8.40000            46.06010929             44.44312208
        8.50000            46.32142008             45.31790599
        8.60000            46.57864789             48.40945213
        8.70000            46.83185652             47.48935874
        8.80000            47.08110876             46.02158835
        8.90000            47.32646644             48.35300130
        9.00000            47.56799040             47.76214550
        9.10000            47.80574055             49.74303053
        9.20000            48.03977585             46.63566966
        9.30000            48.27015435             47.61483006
        9.40000            48.49693319             47.71271689
        9.50000            48.72016861             45.79313872
        9.60000            48.93991598             49.53215653
        9.70000            49.15622979             49.67834033
        9.80000            49.36916370             49.37939061
        9.90000            49.57877052             49.10959625
       10.00000            49.78510223             46.95436074
       10.10000            49.98821001             49.14691936
       10.20000            50.18814422             49.50271519
       10.30000            50.38495447             48.78039993
       10.40000            50.57868956             50.25611813
       10.50000            50.76939753             51.57749925
       10.60000            50.95712570             54.72949750
       10.70000            51.14192061             51.49107623
       10.80000            51.32382810             51.83892888
       10.90000            51.50289328             51.35400145
       11.00000            51.67916058             47.84161815
       11.10000            51.85267369             51.79964594
       11.20000            52.02347567             52.14393609
       11.30000            52.19160886             57.11809308
       11.40000            52.35711497             51.97239304
       11.50000            52.52003505             53.12312973
       11.60000            52.68040950             52.61098596
       11.70000            52.83827810             50.50092203
       11.80000            52.99368001             55.27932564
       11.90000            53.14665376             54.65051982
       12.00000            53.29723729             54.87930119
       12.10000            53.44546796             51.62669305
       12.20000            53.59138252             56.39697114
       12.30000            53.73501717             50.93131504
       12.40000            53.87640753             55.05012171
       12.50000            54.01558866             58.39649991
       12.60000            54.15259509             52.17152244
       12.70000            54.28746079             53.15486533
       12.80000            54.42021921             54.61952194
       12.90000            54.55090329             53.54395198
       13.00000            54.67954542             51.57821856
       13.10000            54.80617753             54.94330348
       13.20000            54.93083100             52.80622358
       13.30000            55.05353677             56.00072163
       13.40000            55.17432526             53.33547679
       13.50000            55.29322642             58.39309523
       13.60000            55.41026976             53.84376318
       13.70000            55.52548430             54.88136126
       13.80000            55.63889860             57.26593304
       13.90000            55.75054081             53.28881218
       14.00000            55.86043861             56.31535848
       14.10000            55.96861926             58.58290477
       14.20000            56.07510958             52.86014312
       14.30000            56.17993600             56.54920371
       14.40000            56.28312450             56.80289009
       14.50000            56.38470068             57.94834642
       14.60000            56.48468973             54.01078831
       14.70000            56.58311645             53.94220323
       14.80000            56.68000526             57.72388839
       14.90000            56.77538018             57.36934952
       15.00000            56.86926486             57.37025056
       15.10000            56.96168260             57.65457902
       15.20000            57.05265631             55.69260686
       15.30000            57.14220855             57.60671595
       15.40000            57.23036154             57.81650649
       15.50000            57.31713714             55.88843431
       15.60000            57.40255688             61.13410590
       15.70000            57.48664192             58.43430777
       15.80000            57.56941314             55.18680615
       15.90000            57.65089106             58.96399828
       16.00000            57.73109589             55.78173255
       16.10000            57.81004752             59.38421673
       16.20000            57.88776553             60.20495668
       16.30000            57.96426919             56.32290455
       16.40000            58.03957748             59.96632974
       16.50000            58.11370908             58.93927094
       16.60000            58.18668238             59.83080270
       16.70000            58.25851547             62.05210143
       16.80000            58.32922616             57.83844993
       16.90000            58.39883201             56.89135968
       17.00000            58.46735026             56.68832140
       17.10000            58.53479791             56.90317734
       17.20000            58.60119169             58.44698827
       17.30000            58.66654807             59.34885202
       17.40000            58.73088326             59.28426486
       17.50000            58.79421321             60.44857970
       17.60000            58.85655362             58.88255741
       17.70000            58.91791997             61.82498813
       17.80000            58.97832747             58.44901381
       17.90000            59.03779111             64.47812944
       18.00000            59.09632562             60.34766032
       18.10000            59.15394553             57.43963042
       18.20000            59.21066513             57.06888014
       18.30000            59.26649849             60.23144332
       18.40000            59.32145945             58.87453388
       18.50000            59.37556165             60.80356264
       18.60000            59.42881850             60.37529375
       18.70000            59.48124321             59.33558538
       18.80000            59.53284878             57.83926135
       18.90000            59.58364802             56.55395357
       19.00000            59.63365352             58.74062362
       19.10000            59.68287769             61.39567527
       19.20000            59.73133272             60.15952021
       19.30000            59.77903065             57.28755309
       19.40000            59.82598329             60.17234515
       19.50000            59.87220230             60.64283706
       19.60000            59.91769914             58.14998427
       19.70000            59.96248509             60.26993531
       19.80000            60.00657126             60.12298870
       19.90000            60.04996859             57.76402799
       20.00000            60.09268783             60.80826255
       20.10000            60.13473958             61.25630864
       20.20000            60.17613428             62.34223676
       20.30000            60.21688218             62.32448628
       20.40000            60.25699339             57.50165466
       20.50000            60.29647787             58.42082779
       20.60000            60.33534541             61.36541594
       20.70000            60.37360563             61.40117754
       20.80000            60.41126805             61.44136342
       20.90000            60.44834198             68.15380496
       21.00000            60.48483664             61.62661766
       21.10000            60.52076107             62.79189235
       21.20000            60.55612417             62.46412770
       21.30000            60.59093473             61.89371724
       21.40000            60.62520138             59.99466289
       21.50000            60.65893261             62.17687105
       21.60000            60.69213679             59.14648636
       21.70000            60.72482215             60.25118494
       21.80000            60.75699680             59.78626971
       21.90000            60.78866873             60.95241701
       22.00000            60.81984578             65.44916291
       22.10000            60.85053569             57.11600530
       22.20000            60.88074607             62.25326645
       22.30000            60.91048441             57.68505267
       22.40000            60.93975809             59.99589436
       22.50000            60.96857437             63.14647557
       22.60000            60.99694040             61.12550044
       22.70000            61.02486320             58.86937365
       22.80000            61.05234972             59.62174230
       22.90000            61.07940675             62.43860225
       23.00000            61.10604102             59.64530776
       23.10000            61.13225913             61.56517631
       23.20000            61.15806758             61.24921126
       23.30000            61.18347278             59.88027208
       23.40000            61.20848101             65.49636919
       23.50000            61.23309850             62.50093654
       23.60000            61.25733133             57.20704616
       23.70000            61.28118553             61.65409416
       23.80000            61.30466701             59.98109408
       23.90000            61.32778159             63.03264825
       24.00000            61.35053500             59.76549352
       24.10000            61.37293289             61.14346001
       24.20000            61.39498081             62.40495537
       24.30000            61.41668424             63.14819463
       24.40000            61.43804855             59.03745573
       24.50000            61.45907904             60.79007657
       24.60000            61.47978093             60.52989031
       24.70000            61.50015935             60.19350089
       24.80000            61.52021936             65.05112784
       24.90000            61.53996593             62.34992936
       25.00000            61.55940397             59.03763606
       25.10000            61.57853828             63.41426217
       25.20000            61.59737362             65.84168601
       25.30000            61.61591466             63.68084518
       25.40000            61.63416599             58.59542606
       25.50000            61.65213215             60.68366400
       25.60000            61.66981758             64.20363988
       25.70000            61.68722668             60.27188775
       25.80000            61.70436376             62.59200262
       25.90000            61.72123308             63.27050119
       26.00000            61.73783881             59.88397787
       26.10000            61.75418508             61.63513437
       26.20000            61.77027594             55.28774126
       26.30000            61.78611538             59.73734010
       26.40000            61.80170733             61.29657102
       26.50000            61.81705565             59.32148928
       26.60000            61.83216415             65.09698676
       26.70000            61.84703659             58.98675383
       26.80000            61.86167664             60.98158767
       26.90000            61.87608794             62.13756910
       27.00000            61.89027407             64.77282065
       27.10000            61.90423854             59.03251424
       27.20000            61.91798481             64.24431232
       27.30000            61.93151630             61.95198242
       27.40000            61.94483636             59.98181905
       27.50000            61.95794829             62.88215524
       27.60000            61.97085535             62.36897474
       27.70000            61.98356073             60.78312698
       27.80000            61.99606759             62.13567176
       27.90000            62.00837904             61.23775185
       28.00000            62.02049812             62.24753281
       28.10000            62.03242783             63.35668918
       28.20000            62.04417115             65.21620478
       28.30000            62.05573097             59.58009998
       28.40000            62.06711018             66.33317693
       28.50000            62.07831158             58.17413598
       28.60000            62.08933796             61.78576777
       28.70000            62.10019206             63.27682647
       28.80000            62.11087656             62.67286029
       28.90000            62.12139411             60.87599507
       29.00000            62.13174733             61.71550283
       29.10000            62.14193877             61.15593691
       29.20000            62.15197098             60.97324147
       29.30000            62.16184644             63.86105063
       29.40000            62.17156758             62.88559856
       29.50000            62.18113684             60.79531765
       29.60000            62.19055658             63.98975633
       29.70000            62.19982913             62.81442817
       29.80000            62.20895680             63.83468104
       29.90000            62.21794185             63.47719953
       30.00000            62.22678651             60.56879649
       30.10000            62.23549297             61.11513089
       30.20000            62.24406339             63.73865060
       30.30000            62.25249990             63.47324043
       30.40000            62.26080459             62.21900140
       30.50000            62.26897952             62.50363429
       30.60000            62.27702671             64.83235651
       30.70000            62.28494817             61.10180539
       30.80000            62.29274586             63.38694062
       30.90000            62.30042170             61.89603640
       31.00000            62.30797761             61.87261521
       31.10000            62.31541546             64.51296917
       31.20000            62.32273710             63.97356980
       31.30000            62.32994433             63.95696360
       31.40000            62.33703895             64.94799656
       31.50000            62.34402272             62.38603040
